Temps [s],Tension [V]
0.02,3.8142
0.1,2.503759
0.18,1.115785
0.26,-0.161609
0.34,-1.212758
0.42,-2.103756
0.51,-2.763425
0.59,-3.125671
0.67,-3.232439
0.75,-3.040512
0.83,-2.626153
0.91,-1.965213
0.99,-1.083112
1.07,-0.021795
1.15,1.206028
1.23,2.550787
1.31,3.872667
1.39,5.214884
1.47,6.374071
1.55,7.310827
1.64,8.006085
1.72,8.396294
1.8,8.677193
1.88,8.703885
1.96,8.557716
2.04,8.200554
2.12,7.553595
2.2,6.695644
2.28,5.582214
2.36,4.274316
2.44,2.939725
2.52,1.584798
2.61,0.331554
2.69,-0.7984
2.77,-1.754221
2.85,-2.464731
2.93,-2.969334
3.01,-3.207018
3.09,-3.187952
3.18,-2.863837
3.26,-2.239757
3.34,-1.421209
3.42,-0.357349
3.5,0.864119
3.58,2.177102
3.66,3.542197
3.74,4.799254
3.82,5.866927
3.9,6.845627
3.98,7.554866
4.06,8.242498
4.14,8.674651
4.22,8.898354
4.3,8.862765
4.38,8.475098
4.47,7.845934
4.55,6.929515
4.63,5.837693
4.71,4.634019
4.79,3.362981
4.87,2.085587
4.95,0.879371
5.03,-0.320489
5.11,-1.31317
5.19,-2.160953
5.27,-2.788846
5.35,-3.138382
5.43,-3.228625
5.51,-2.988399
5.59,-2.482526
5.67,-1.70465
5.76,-0.659856
5.84,0.438321
5.92,1.669957
6,2.892697
6.08,4.148483
6.16,5.350885
6.24,6.414745
6.32,7.463351
6.4,8.251395
6.48,8.780147
6.57,9.050879
6.65,8.903438
6.73,8.537379
6.81,7.913299
6.89,7.08204
6.97,6.23807
7.05,5.186921
7.13,3.980706
7.21,2.745256
7.29,1.418292
7.37,0.171403
7.45,-0.986513
7.54,-1.93725
7.62,-2.608359
7.7,-3.035428
7.78,-3.142195
7.86,-2.983315
7.94,-2.563872
8.02,-1.902932
8.1,-1.072944
8.18,-0.06501
8.26,1.072569
8.34,2.365216
8.43,3.748106
8.5,5.011518
8.59,6.273659
8.67,7.350229
8.75,8.064553
8.84,8.561529
8.92,8.742016
9,8.670838
9.08,8.478911
9.16,8.042945
9.24,7.474791
9.32,6.667681
9.4,5.627972
9.48,4.398877
9.56,3.037595
9.64,1.705546
9.72,0.419255
9.8,-0.734848
9.88,-1.6805
9.97,-2.396095
10.05,-2.84223
10.13,-3.036699
10.21,-2.996025
10.29,-2.689705
10.37,-2.143158
10.45,-1.390704
10.53,-0.39548
10.61,0.78023
10.69,2.111008
10.77,3.453225
10.86,4.772563
10.93,5.934292
11.02,6.925702
11.1,7.667989
11.18,8.237414
11.26,8.566613
11.34,8.805568
11.42,8.738203
11.51,8.459846
11.58,7.937449
11.67,7.052806
11.75,6.00547
11.83,4.749684
11.91,3.393486
11.99,2.094484
12.07,0.862848
12.15,-0.274732
12.23,-1.248347
12.31,-2.052915
12.39,-2.647761
12.47,-3.015091
12.55,-3.105335
12.64,-2.912137
12.72,-2.425329
12.8,-1.65508
12.88,-0.649688
12.96,0.517125
13.04,1.800874
13.12,3.096063
13.2,4.34041
13.28,5.488157
13.36,6.502446
13.44,7.389631
13.52,8.083618
13.6,8.650502
13.69,8.918691
13.77,8.888186
13.85,8.607286
13.93,8.009898
14.01,7.225667
14.09,6.224089
14.17,5.110659
14.25,3.947659
14.33,2.658825
14.41,1.425918
14.49,0.248936
14.57,-0.88483
14.65,-1.787268
14.73,-2.515573
14.81,-2.945184
14.89,-3.093895
14.98,-2.975689
15.06,-2.530825
15.14,-1.860988
15.22,-0.986513
15.3,0.086243
15.38,1.236533
15.46,2.489777
15.54,3.748106
15.63,4.993723
15.71,6.157995
15.79,7.141779
15.87,7.973038
15.95,8.5145
16.03,8.78269
16.11,8.81955
16.19,8.546276
16.27,8.088702
16.35,7.451912
16.43,6.577438
16.52,5.584756
16.6,4.407775
16.68,3.126568
16.76,1.828837
16.84,0.576864
16.92,-0.605202
17,-1.586444
17.09,-2.327459
17.17,-2.786304
17.25,-2.993483
17.33,-2.91595
17.41,-2.602003
17.49,-2.033849
17.57,-1.224198
17.66,-0.221348
17.74,0.907334
17.82,2.170747
17.9,3.514234
17.98,4.815778
18.06,5.985134
18.14,7.001964
18.22,7.810345
18.31,8.344181
18.38,8.683549
18.47,8.714053
18.55,8.550089
18.63,8.215806
18.71,7.622231
18.79,6.822748
18.87,5.828796
18.95,4.664524
19.03,3.417636
19.11,2.080503
19.2,0.820904
19.28,-0.323031
19.36,-1.322067
19.44,-2.097401
19.52,-2.656658
19.6,-2.955352
19.68,-2.996025
19.76,-2.773594
19.84,-2.242299
19.93,-1.466966
20.01,-0.523855
20.09,0.63279
20.17,1.872053
20.25,3.191391
20.33,4.449719
20.41,5.586027
20.49,6.652429
20.57,7.446828
20.65,8.0976
20.73,8.523398
20.81,8.683549
20.89,8.71024
20.97,8.44078
21.05,7.937449
21.14,7.181181
21.22,6.168163
21.3,5.029312
21.38,3.811657
21.46,2.536806
21.54,1.310253
21.62,0.118019
21.7,-0.939485
21.78,-1.798707
21.86,-2.45075
21.94,-2.858753
22.02,-3.002381
22.11,-2.832061
22.19,-2.427871
22.27,-1.759305
22.35,-0.864494
22.43,0.222244
22.51,1.403039
22.59,2.675349
22.67,3.910799
22.75,5.115743
22.83,6.174518
22.91,7.098563
23,7.906944
23.08,8.425528
23.16,8.750914
23.24,8.805568
23.31,8.617455
23.4,8.182759
23.48,7.467165
23.56,6.578709
23.64,5.508494
23.72,4.34041
23.8,3.10496
23.88,1.805959
23.96,0.631519
24.04,-0.514958
24.12,-1.483489
24.21,-2.227047
24.29,-2.729107
24.37,-2.938829
24.45,-2.865108
24.53,-2.549891
24.61,-1.958858
24.69,-1.164459
24.78,-0.156525
24.86,1.017915
24.94,2.208878
25.02,3.504066
25.1,4.799254
25.18,5.91904
25.26,6.956207
25.34,7.758232
25.42,8.37977
25.5,8.729306
25.58,8.783961
25.67,8.625081
25.74,8.239956
25.83,7.591726
25.91,6.826561
25.99,5.837693
26.07,4.712824
26.15,3.497711
26.23,2.216504
26.31,0.934026
26.39,-0.204825
26.47,-1.212758
26.55,-1.971568
26.63,-2.547349
26.71,-2.825706
26.79,-2.885445
26.87,-2.668097
26.95,-2.215608
27.04,-1.507639
27.12,-0.598847
27.2,0.503144
27.28,1.737322
27.36,2.990567
27.44,4.2794
27.52,5.507223
27.6,6.56854
27.68,7.443015
27.76,8.105226
27.84,8.496706
27.93,8.698801
28.01,8.651773
28.09,8.383583
28.17,7.920925
28.25,7.200246
28.33,6.291454
28.41,5.186921
28.49,3.960369
28.57,2.665181
28.66,1.350927
28.74,0.172674
28.82,-0.882288
28.9,-1.7288
28.98,-2.357964
29.06,-2.771052
29.14,-2.921034
29.22,-2.811725
29.3,-2.427871
29.38,-1.747865
29.47,-0.855596
29.55,0.224787
29.63,1.444984
29.71,2.674078
29.79,3.946388
29.87,5.119556
29.95,6.208836
30.03,7.144321
30.11,7.851018
30.2,8.420444
30.28,8.729306
30.36,8.749643
30.44,8.566613
30.52,8.111581
30.6,7.413781
30.68,6.510072
30.76,5.471634
30.84,4.290839
30.93,3.000735
31.01,1.729696
31.09,0.575593
31.17,-0.527668
31.25,-1.441545
31.33,-2.163495
31.41,-2.652845
31.49,-2.868921
31.57,-2.820622
31.65,-2.492694
31.73,-1.901661
31.81,-1.098365
31.9,-0.086618
31.98,1.063672
32.06,2.267346
32.14,3.558721
32.22,4.801797
32.3,5.94446
32.38,6.91045
32.46,7.695952
32.54,8.292069
32.62,8.616183
32.7,8.722951
32.79,8.556445
32.87,8.17132
32.95,7.577745
33.03,6.747757
33.11,5.757618
33.19,4.635291
33.27,3.407467
33.35,2.156765
33.43,0.916232
33.51,-0.221348
33.6,-1.217842
33.68,-1.99826
33.76,-2.52447
33.84,-2.814267
33.92,-2.84223
34,-2.595648
34.08,-2.113925
34.16,-1.381806
34.24,-0.446322
34.32,0.672192
34.41,1.887305
34.49,3.11767
34.57,4.412859
34.65,5.573317
34.73,6.574895
34.81,7.472249
34.89,8.095058
34.97,8.534837
35.05,8.719138
35.14,8.664483
35.21,8.383583
35.3,7.851018
35.38,7.098563
35.46,6.163079
35.54,4.984826
35.62,3.844704
35.7,2.569853
35.78,1.340758
35.86,0.208263
35.94,-0.844157
36.02,-1.685585
36.11,-2.336356
36.19,-2.7075
36.27,-2.814267
36.35,-2.674453
36.43,-2.260094
36.51,-1.591528
36.59,-0.711969
36.67,0.358246
36.76,1.575901
36.84,2.8355
36.92,4.115436
37,5.293689
37.08,6.355006
37.17,7.242191
37.25,7.942533
37.33,8.450948
37.41,8.692446
37.49,8.691175
37.57,8.442051
37.65,7.936178
37.73,7.258714
37.81,6.339753
37.9,5.268268
37.97,4.102725
38.06,2.844397
38.14,1.608948
38.22,0.406545
38.3,-0.668754
38.38,-1.547041
38.46,-2.248655
38.54,-2.694789
38.62,-2.881632
38.7,-2.777407
38.78,-2.404992
38.86,-1.787268
38.94,-0.949653
39.02,0.055738
39.11,1.180608
39.19,2.39572
39.27,3.638796
39.35,4.862806
39.43,6.010554
39.51,6.967646
39.59,7.768401
39.67,8.307321
39.75,8.672109
39.83,8.754727
39.92,8.553903
40,8.15861
40.08,7.515464
40.16,6.670223
40.24,5.648308
40.32,4.504374
40.4,3.23969
40.49,1.955941
40.57,0.737015
40.65,-0.400564
40.73,-1.360199
40.81,-2.09613
40.89,-2.574041
40.97,-2.804099
41.05,-2.763425
41.13,-2.471086
41.21,-1.951232
41.29,-1.210216
41.38,-0.253124
41.46,0.860306
41.54,2.070335
41.62,3.345186
41.7,4.602244
41.78,5.747449
41.86,6.752841
41.94,7.567577
42.02,8.138273
42.1,8.506874
42.18,8.633978
42.27,8.546276
42.35,8.252666
42.43,7.693409
42.51,6.933328
42.6,5.87074
42.68,4.710282
42.76,3.500253
42.84,2.193625
42.92,0.986139
43,-0.157796
43.08,-1.127599
43.16,-1.90039
43.24,-2.459647
43.32,-2.760883
43.4,-2.820622
43.49,-2.602003
43.57,-2.10884
43.65,-1.39833
43.73,-0.452677
43.81,0.63279
43.89,1.83265
43.97,3.094792
44.05,4.34041
44.13,5.502139
44.21,6.517699
44.3,7.378192
44.38,8.039132
44.46,8.476369
44.54,8.702614
44.62,8.689904
44.7,8.358163
44.78,7.872626
44.86,7.123984
44.94,6.173247
45.02,5.12464
45.1,3.941303
45.19,2.694415
45.26,1.511078
45.35,0.336638
45.43,-0.701801
45.51,-1.550854
45.59,-2.195271
45.67,-2.590564
45.75,-2.739276
45.83,-2.617256
45.91,-2.239757
45.99,-1.620762
46.07,-0.77425
46.15,0.252749
46.24,1.420834
46.32,2.649928
46.4,3.87648
46.48,5.109388
46.56,6.180873
46.64,7.126526
46.72,7.844663
46.8,8.340368
46.88,8.653044
46.96,8.688633
47.04,8.520856
47.12,8.08616
47.2,7.429033
47.28,6.588877
47.36,5.56442
47.44,4.444635
47.52,3.238419
47.61,1.996614
47.68,0.832343
47.77,-0.295068
47.85,-1.248347
47.93,-1.977923
48.01,-2.46346
48.09,-2.697331
48.17,-2.692247
48.25,-2.408806
48.33,-1.87624
48.41,-1.139038
48.49,-0.201011
48.57,0.907334
48.65,2.07669
48.73,3.3007
48.82,4.525981
48.9,5.683897
48.98,6.699457
49.06,7.509109
49.14,8.145899
49.22,8.504332
49.3,8.651773
49.38,8.557716
49.46,8.209451
49.54,7.688325
49.62,6.944768
49.71,5.960984
49.78,4.911106
49.87,3.69218
49.95,2.475796
50.03,1.274664
50.11,0.153608
50.19,-0.878475
50.27,-1.657622
50.35,-2.25501
50.43,-2.604545
50.51,-2.694789
50.59,-2.521928
50.67,-2.115196
50.75,-1.469508
50.83,-0.614099
50.91,0.386208
50.99,1.561919
51.07,2.780845
51.15,3.995958
51.23,5.176753
51.31,6.248239
51.39,7.157031
51.48,7.848476
51.56,8.349265
51.64,8.621268
51.72,8.625081
51.8,8.430612
51.88,7.957785
51.96,7.305743
52.04,6.431268
52.13,5.339446
52.2,4.234913
52.28,2.996922
52.36,1.794519
52.44,0.644229
52.52,-0.40692
52.61,-1.301731
52.69,-1.983008
52.77,-2.476171
52.85,-2.688434
52.93,-2.632508
53.01,-2.312207
53.1,-1.730071
53.18,-0.959821
53.26,0.041757
53.34,1.211112
53.42,2.394449
53.5,3.614647
53.58,4.78146
53.66,5.877095
53.74,6.829103
53.82,7.592997
53.9,8.163694
53.98,8.50179
54.06,8.639062
54.14,8.506874
54.23,8.111581
54.31,7.516735
54.39,6.700728
54.47,5.718215
54.55,4.62258
54.63,3.41128
54.72,2.146597
54.8,0.949279
54.88,-0.137459
54.96,-1.086925
55.04,-1.849549
55.12,-2.371945
55.2,-2.638864
55.28,-2.643948
55.37,-2.361777
55.45,-1.855904
55.53,-1.109804
55.61,-0.190843
55.69,0.893353
55.77,2.071606
55.85,3.293074
55.93,4.477682
56.01,5.605093
56.09,6.606671
56.17,7.453183
56.25,8.08616
56.33,8.491622
56.41,8.679735
56.5,8.590763
56.58,8.284442
56.66,7.721372
56.74,6.975273
56.82,6.048685
56.9,4.960676
56.98,3.819284
57.06,2.605442
57.14,1.350927
57.22,0.209534
57.31,-0.803484
57.39,-1.632201
57.47,-2.204168
57.55,-2.577854
57.63,-2.642677
57.71,-2.471086
57.79,-2.049102
57.87,-1.384348
57.95,-0.540379
58.04,0.504415
58.12,1.644537
58.19,2.821518
58.28,4.101454
58.36,5.282249
58.44,6.330856
58.52,7.207873
58.6,7.868813
58.68,8.3302
58.76,8.539921
58.84,8.548818
58.92,8.334013
59,7.892962
59.08,7.281593
59.16,6.386782
59.25,5.358511
59.33,4.200595
59.41,2.989296
59.49,1.786893
59.57,0.592117
59.65,-0.465387
59.73,-1.334778
59.81,-2.013512
59.89,-2.448208
59.98,-2.633779
60.06,-2.565143
60.14,-2.223234
60.22,-1.642369
60.3,-0.867036
60.38,0.086243
60.46,1.181879
60.54,2.41987
60.62,3.599394
60.7,4.809423
60.78,5.9076
60.86,6.850711
60.94,7.595539
61.03,8.120478
61.11,8.429341
61.19,8.539921
61.26,8.425528
61.35,8.105226
61.43,7.525632
61.51,6.717252
61.59,5.755076
61.67,4.627664
61.75,3.437972
61.83,2.233028
61.91,1.052233
61.99,-0.058655
62.07,-0.997953
